# scan = 36
# date = 6/22/2012
# time = 12:20:51 PM
# proposal = 5137
# experiment = Measurement of the phonon dispersion of Bismuch at high temperatures
# experiment_number = 50
# command = scan h 0 k 0 l 3 e -15.25 -14.25 -0.25 preset mcu 15
# builtin_command = scan h 0 k 0 l 3 e -15.25 -14.25 -0.25 preset mcu 15
# users = Michael Manley and Olivier Delaire
# local_contact = T. Hong
# scan_title = LO at G (0 0 3), 150 K
# monochromator = PG002
# analyzer = Pg002
# sense = -+-
# collimation = 48-40-40-120
# samplename = C32D24CuN2O14
# sampletype = crystal
# samplemosaic = 30.000000
# latticeconstants = 4.535778,4.535778,11.837000,90.000000,90.000000,120.000000
# ubmatrix = 0.006903,-0.004243,-0.084398,0.254439,0.123374,0.002343,-0.004682,-0.222643,0.002907
# mode = 0
# plane_normal = 0.020999,0.010495,0.601255
# ubconf = UB21Jun2012_25646PM.ini
# preset_type = normal 
# preset_channel = mcu
# preset_value = 15.000000
# def_x = e
# def_y = detector
# col_headers = 
#   Pt.          h          k          l          e       time   detector    monitor        mcu focal_length         m1         m2       marc     mtrans     mfocus         s1         s2        sgl        sgu        stl        stu         a1         a2          q         ei         ef cold_tip_[a] sample_[b]   e_typ_tc   au-fe_tc       temp
      1     0.0000     0.0000     3.0000   -15.2500    933.280    385.000 1284615.000     15.000    96.4440   142.9286   -74.1428     0.6359     0.0000    34.9840   -75.6158     6.4947    -2.0000     1.0000     0.0000     0.0000   162.5701   -34.8598     1.5924     5.0000    20.2500   152.0520   150.9960     0.0000     0.0000   152.000
      2     0.0000     0.0000     3.0000   -15.0000    934.502    226.000 1284615.000     15.000    96.4440   142.9286   -74.1428     0.6359     0.0000    34.9840   -70.3697     9.1509    -2.0000     1.0000     0.0000     0.0000   162.4580   -35.0840     1.5924     5.0000    20.0000   152.0820   150.5900     0.0000     0.0000   152.000
      3     0.0000     0.0000     3.0000   -14.7500    934.229    181.000 1284615.000     15.000    96.4440   142.9286   -74.1428     0.6359     0.0000    34.9840   -66.3046    11.2095    -2.0000     1.0000     0.0000     0.0000   162.3437   -35.3126     1.5924     5.0000    19.7500   152.1270   150.9330     0.0000     0.0000   152.000
      4     0.0000     0.0000     3.0000   -14.5000    935.392    144.000 1284615.000     15.000    96.4440   142.9286   -74.1428     0.6359     0.0000    34.9840   -62.8508    12.9588    -2.0000     1.0000     0.0000     0.0000   162.2270   -35.5458     1.5924     5.0000    19.5000   152.1750   150.9480     0.0000     0.0000   152.000
      5     0.0000     0.0000     3.0000   -14.2500    942.965    134.000 1284615.000     15.000    96.4440   142.9286   -74.1428     0.6359     0.0000    34.9840   -59.7860    14.5113    -2.0000     1.0000     0.0000     0.0000   162.1082   -35.7836     1.5924     5.0000    19.2500   151.9330   151.4210     0.0000     0.0000   152.000
# Sum of Counts = 1070
# Center of Mass = -14.886449+/-0.643688
# Full Width Half-Maximum = 0.704998+/-0.603461
# 3:23:50 PM  6/22/2012   scan completed.
