# scan = 84
# date = 6/25/2012
# time = 1:34:01 PM
# proposal = 5137
# experiment = Measurement of the phonon dispersion of Bismuch at high temperatures
# experiment_number = 50
# command = scanrel s2 -1 1 0.1
# builtin_command = scan s2 @(s2)+-1 @(s2)+1 0.100000
# users = Michael Manley and Olivier Delaire
# local_contact = T. Hong
# scan_title = crystal check
# monochromator = PG002
# analyzer = Pg002
# sense = -+-
# collimation = 48-40-40-120
# samplename = C32D24CuN2O14
# sampletype = crystal
# samplemosaic = 30.000000
# latticeconstants = 7.596700,8.392700,13.812900,72.618000,89.097000,87.822000
# ubmatrix = 0.003572,-0.004475,-0.071544,0.131662,-0.006535,0.002053,-0.002423,-0.124677,0.025143
# mode = 0
# plane_normal = 0.020999,0.010495,0.601255
# ubconf = UB25Jun2012_13208PM.ini
# preset_type = normal 
# preset_channel = time
# preset_value = 1.000000
# def_x = s2
# def_y = detector
# col_headers = 
#   Pt.         s2       time   detector    monitor        mcu focal_length         m1         m2       marc     mtrans     mfocus         s1        sgl        sgu        stl        stu         a1         a2          q          h          k          l         ei         ef          e cold_tip_[a] sample_[b]   e_typ_tc   au-fe_tc       temp
      1    34.7390      1.000    146.000   2115.000      1.029    96.4440   142.9286   -74.1428     0.6359     0.0000    34.9840    12.0000     0.0000     0.0000     0.0000     0.0000   142.9286   -74.1428     0.9275    -0.1161     0.4102     2.0227     5.0000     5.0000     0.0000     0.0000     0.0000     0.0000     0.0000     0.000
      2    34.8390      1.000    423.000   2104.000      1.023    96.4440   142.9286   -74.1428     0.6359     0.0000    34.9840    12.0000     0.0000     0.0000     0.0000     0.0000   142.9286   -74.1428     0.9301    -0.1174     0.4113     2.0281     5.0000     5.0000     0.0000     0.0000     0.0000     0.0000     0.0000     0.000
      3    34.9391      0.000      0.000      0.000      0.000    96.4440   142.9286   -74.1428     0.6359     0.0000    34.9840    12.0000     0.0000     0.0000     0.0000     0.0000   142.9286   -74.1428     0.9326    -0.1187     0.4124     2.0336     5.0000     5.0000     0.0000     0.0000     0.0000     0.0000     0.0000     0.000
# Sum of Counts = 569
# Center of Mass = 34.813341+/-2.063976
# Full Width Half-Maximum = 0.087350+/-2.549673
# 1:34:08 PM  6/25/2012   scan stopped!!
