# scan = 82
# date = 10/25/2011
# time = 4:17:15 PM
# proposal = 5137
# experiment = Measurement of the phonon dispersion of Bismuch at high temperatures
# experiment_number = 25
# command = scan h 1 k 0 l 1 e -7.875 -6.875 0.25 preset mcu 2.0
# builtin_command = scan h 1 k 0 l 1 e -7.875 -6.875 0.25 preset mcu 2.0
# users = Michael Manley and Olivier Delaire
# local_contact = T. Hong
# scan_title = Looking for TO mode at Gamma (1,0,1)
# monochromator = PG002
# analyzer = Pg002
# sense = -+-
# collimation = 48-40-40-120
# samplename = C32D24CuN2O14
# sampletype = crystal
# samplemosaic = 30.000000
# latticeconstants = 4.550000,4.550000,11.874153,90.000000,90.000000,120.000000
# ubmatrix = 0.010837,-0.005083,-0.084043,0.253534,0.124851,0.003635,-0.002731,-0.220886,0.003989
# mode = 0
# plane_normal = 0.028751,0.005245,0.601004
# ubconf = UB24Oct2011_63347PM.ini
# preset_type = normal 
# preset_channel = mcu
# preset_value = 2.000000
# def_x = e
# def_y = detector
# col_headers = 
#   Pt.          h          k          l          e       time   detector    monitor        mcu focal_length         m1         m2       marc     mtrans     mfocus         s1         s2        sgl        sgu        stl        stu         a1         a2          q         ei         ef cold_tip_[a] sample_[b]   e_typ_tc   au-fe_tc       temp
      1     1.0000     0.0000     1.0000    -7.8750    119.451     14.000 183186.000      2.000    96.4440   142.9286   -74.1428     0.6500     0.0000    34.9840    63.2938    41.4574    -2.7386     0.5000     0.0000     0.0000   157.9350   -44.1299     1.6801     5.0000    12.8750   299.2380   298.2230   300.4890   295.9210   300.000
      2     1.0000     0.0000     1.0000    -7.6250    119.466      9.000 183186.000      2.000    96.4440   142.9286   -74.1428     0.6500     0.0000    34.9840    64.6392    42.1748    -2.7386     0.5000     0.0000     0.0000   157.7061   -44.5879     1.6801     5.0000    12.6250   299.2350   298.2260   299.8460   295.8660   300.000
      3     1.0000     0.0000     1.0000    -7.3750    119.805     10.000 183186.000      2.000    96.4440   142.9286   -74.1428     0.6500     0.0000    34.9840    65.9794    42.8904    -2.7386     0.5000     0.0000     0.0000   157.4698   -45.0605     1.6801     5.0000    12.3750   299.2160   298.2190   300.1240   295.8840   300.000
      4     1.0000     0.0000     1.0000    -7.1250    119.811     15.000 183186.000      2.000    96.4440   142.9286   -74.1428     0.6500     0.0000    34.9840    67.3150    43.6045    -2.7386     0.5000     0.0000     0.0000   157.2258   -45.5485     1.6801     5.0000    12.1250   299.2340   298.2240   300.1950   295.9590   300.000
      5     1.0000     0.0000     1.0000    -6.8750    119.311     14.000 183186.000      2.000    96.4440   142.9286   -74.1428     0.6500     0.0000    34.9840    68.6470    44.3176    -2.7386     0.5000     0.0000     0.0000   156.9736   -46.0527     1.6801     5.0000    11.8750   299.2070   298.2170   299.6560   295.8940   300.000
# Sum of Counts = 62
# Center of Mass = -7.350806+/-1.321077
# Full Width Half-Maximum = 0.738949+/-1.243769
# 4:27:26 PM  10/25/2011   scan completed.
