# scan = 29
# date = 10/24/2011
# time = 6:08:23 PM
# proposal = 5137
# experiment = Measurement of the phonon dispersion of Bismuch at high temperatures
# experiment_number = 25
# command = scan h 0 k 0 l 3.4 e 1.0 2.0  0.2 preset mcu 1
# builtin_command = scan h 0 k 0 l 3.4 e 1.0 2.0 0.2 preset mcu 1
# users = Michael Manley and Olivier Delaire
# local_contact = T. Hong
# scan_title = check LA phonon (0,0,3.4) phonon creation side
# monochromator = PG002
# analyzer = Pg002
# sense = -+-
# collimation = 48-40-40-120
# samplename = C32D24CuN2O14
# sampletype = crystal
# samplemosaic = 30.000000
# latticeconstants = 4.550000,4.550000,11.874153,90.000000,90.000000,120.000000
# ubmatrix = 0.010837,-0.005083,-0.084043,0.253534,0.124851,0.003635,-0.002731,-0.220886,0.003989
# mode = 0
# plane_normal = 0.028751,0.005245,0.601004
# ubconf = UB24Oct2011_30648PM.ini
# preset_type = normal 
# preset_channel = mcu
# preset_value = 1.000000
# def_x = e
# def_y = detector
# col_headers = 
#   Pt.          h          k          l          e       time   detector    monitor        mcu focal_length         m1         m2       marc     mtrans     mfocus         s1         s2        sgl        sgu        stl        stu         a1         a2          q         ei         ef cold_tip_[a] sample_[b]   e_typ_tc   au-fe_tc       temp
      1     0.0000     0.0000     3.4000     1.0000     60.084      6.000  91593.000      1.000    96.4440   142.9286   -74.1428     0.6500     0.0000    34.9840    44.1660    75.1455    -2.7386     0.5000     0.0000     0.0000   137.6264   -84.7472     1.7991     5.0000     4.0000   299.3490   298.2010   299.8310   294.5270   300.000
      2     0.0000     0.0000     3.4000     1.2000     60.635      6.000  91593.000      1.000    96.4440   142.9286   -74.1428     0.6500     0.0000    34.9840    45.5055    76.1085    -2.7386     0.5000     0.0000     0.0000   136.2534   -87.4932     1.7991     5.0000     3.8000   299.3320   298.1910   299.6410   294.3550   300.000
      3     0.0000     0.0000     3.4000     1.4000     60.605      3.000  91593.000      1.000    96.4440   142.9286   -74.1428     0.6500     0.0000    34.9840    46.8750    77.1093    -2.7386     0.5000     0.0000     0.0000   134.7310   -90.5379     1.7991     5.0000     3.6000   299.3390   298.1920   300.3120   294.4390   300.000
      4     0.0000     0.0000     3.4000     1.6000     61.089      4.000  91593.000      1.000    96.4440   142.9286   -74.1428     0.6500     0.0000    34.9840    48.2774    78.1526    -2.7386     0.5000     0.0000     0.0000   133.0285   -93.9430     1.7991     5.0000     3.4000   299.3610   298.2020   300.5520   294.4850   300.000
      5     0.0000     0.0000     3.4000     1.8000     11.291      0.000  17185.000      0.188    96.4440   142.9286   -74.1428     0.6500     0.0000    34.9840    49.7160    79.2441    -2.7386     0.5000     0.0000     0.0000   131.1045   -97.7912     1.7991     5.0000     3.2000   299.3680   298.2050   300.2120   294.3900   300.000
# Sum of Counts = 19
# Center of Mass = 1.252632+/-0.409623
# Full Width Half-Maximum = 0.446594+/-0.419480
# 6:13:14 PM  10/24/2011   scan stopped!!
