# scan = 111
# date = 10/26/2011
# time = 12:20:33 PM
# proposal = 5137
# experiment = Measurement of the phonon dispersion of Bismuch at high temperatures
# experiment_number = 25
# command = scan h -1 k 0 l 3.2 e -7.9 -3.5 0.1 preset mcu 0.5
# builtin_command = scan h -1 k 0 l 3.2 e -7.9 -3.5 0.1 preset mcu 0.5
# users = Michael Manley and Olivier Delaire
# local_contact = T. Hong
# scan_title = LA + TA phonons in (-102) at (0,0,1.2), add data
# monochromator = PG002
# analyzer = Pg002
# sense = -+-
# collimation = 48-40-40-120
# samplename = C32D24CuN2O14
# sampletype = crystal
# samplemosaic = 30.000000
# latticeconstants = 4.550000,4.550000,11.874153,90.000000,90.000000,120.000000
# ubmatrix = 0.010837,-0.005083,-0.084043,0.253534,0.124851,0.003635,-0.002731,-0.220886,0.003989
# mode = 0
# plane_normal = 0.028751,0.005245,0.601004
# ubconf = UB24Oct2011_63347PM.ini
# preset_type = normal 
# preset_channel = mcu
# preset_value = 0.500000
# def_x = e
# def_y = detector
# col_headers = 
#   Pt.          h          k          l          e       time   detector    monitor        mcu focal_length         m1         m2       marc     mtrans     mfocus         s1         s2        sgl        sgu        stl        stu         a1         a2          q         ei         ef cold_tip_[a] sample_[b]   e_typ_tc   au-fe_tc       temp
      1    -1.0000     0.0000     3.2000    -7.9000     29.730     12.000  45796.000      0.500    96.4440   142.9286   -74.1428     0.6500     0.0000    34.9840   -28.0596    65.3849    -2.7386     0.5000     0.0000     0.0000   157.9576   -44.0848     2.3259     5.0000    12.9000   473.3730    66.5120   503.5750   481.6190   500.000
      2    -1.0000     0.0000     3.2000    -7.8000      8.331      3.000  12943.000      0.141    96.4440   142.9286   -74.1428     0.6500     0.0000    34.9840   -27.6669    65.6762    -2.7386     0.5000     0.0000     0.0000   157.8671   -44.2658     2.3259     5.0000    12.8000   473.4320    66.1020   500.3110   480.9000   500.000
# Sum of Counts = 15
# Center of Mass = -7.880000+/-2.877388
# Full Width Half-Maximum = 0.080000+/-3.255462
# 12:21:30 PM  10/26/2011   scan stopped!!
