# scan = 162
# date = 10/27/2011
# time = 5:52:05 PM
# proposal = 5137
# experiment = Measurement of the phonon dispersion of Bismuch at high temperatures
# experiment_number = 25
# command = scan h 1.5 k 0 l 1.5 e -15 -14 0.25 preset mcu 4.0
# builtin_command = scan h 1.5 k 0 l 1.5 e -15 -14 0.25 preset mcu 4.0
# users = Michael Manley and Olivier Delaire
# local_contact = T. Hong
# scan_title = Optic dispersion L (1.5 0 1.5), add data, 300K
# monochromator = PG002
# analyzer = Pg002
# sense = -+-
# collimation = 48-40-40-120
# samplename = C32D24CuN2O14
# sampletype = crystal
# samplemosaic = 30.000000
# latticeconstants = 4.550000,4.550000,11.874153,90.000000,90.000000,120.000000
# ubmatrix = 0.010837,-0.005083,-0.084043,0.253534,0.124851,0.003635,-0.002731,-0.220886,0.003989
# mode = 0
# plane_normal = 0.028751,0.005245,0.601004
# ubconf = UB24Oct2011_63347PM.ini
# preset_type = normal 
# preset_channel = mcu
# preset_value = 4.000000
# def_x = e
# def_y = detector
# col_headers = 
#   Pt.          h          k          l          e       time   detector    monitor        mcu focal_length         m1         m2       marc     mtrans     mfocus         s1         s2        sgl        sgu        stl        stu         a1         a2          q         ei         ef cold_tip_[a] sample_[b]   e_typ_tc   au-fe_tc       temp
      1     1.5000     0.0000     1.5000   -15.0000    236.606     30.000 366372.000      4.000    96.4440   142.9286   -74.1428     0.6500     0.0000    34.9840    67.5784    53.6998    -2.7386     0.5000     0.0000     0.0000   162.4580   -35.0840     2.5201     5.0000    20.0000   292.0190    35.2420   310.7740   303.8160   300.000
      2     1.5000     0.0000     1.5000   -14.7500    237.233     36.000 366372.000      4.000    96.4440   142.9286   -74.1428     0.6500     0.0000    34.9840    68.4663    54.3260    -2.7386     0.5000     0.0000     0.0000   162.3437   -35.3126     2.5201     5.0000    19.7500   290.3840    23.4260   311.8980   301.7810   300.000
      3     1.5000     0.0000     1.5000   -14.5000    238.160     41.000 366372.000      4.000    96.4440   142.9286   -74.1428     0.6500     0.0000    34.9840    69.3528    54.9536    -2.7386     0.5000     0.0000     0.0000   162.2271   -35.5458     2.5201     5.0000    19.5000   288.2550    29.3430   312.3330   299.9420   300.000
      4     1.5000     0.0000     1.5000   -14.2500    236.231     37.000 366372.000      4.000    96.4440   142.9286   -74.1428     0.6500     0.0000    34.9840    70.2383    55.5828    -2.7386     0.5000     0.0000     0.0000   162.1082   -35.7836     2.5201     5.0000    19.2500   286.9970    23.1090   311.6130   298.1600   300.000
      5     1.5000     0.0000     1.5000   -14.0000    237.511     65.000 366372.000      4.000    96.4440   142.9286   -74.1428     0.6500     0.0000    34.9840    71.1228    56.2137    -2.7386     0.5000     0.0000     0.0000   161.9869   -36.0262     2.5201     5.0000    19.0000   284.9710    27.0860   310.3160   296.6840   300.000
# Sum of Counts = 209
# Center of Mass = -14.415072+/-1.410346
# Full Width Half-Maximum = 0.716251+/-1.322657
# 6:12:12 PM  10/27/2011   scan completed.
