# scan = 89
# date = 10/25/2011
# time = 7:02:36 PM
# proposal = 5137
# experiment = Measurement of the phonon dispersion of Bismuch at high temperatures
# experiment_number = 25
# command = scan h 0.5 k 0 l 3.5 e -13.5 -8.0 0.25 preset mcu 1.0
# builtin_command = scan h 0.5 k 0 l 3.5 e -13.5 -8.0 0.25 preset mcu 1.0
# users = Michael Manley and Olivier Delaire
# local_contact = T. Hong
# scan_title = Optical phonons at L (0.5,0,3.5)
# monochromator = PG002
# analyzer = Pg002
# sense = -+-
# collimation = 48-40-40-120
# samplename = C32D24CuN2O14
# sampletype = crystal
# samplemosaic = 30.000000
# latticeconstants = 4.550000,4.550000,11.874153,90.000000,90.000000,120.000000
# ubmatrix = 0.010837,-0.005083,-0.084043,0.253534,0.124851,0.003635,-0.002731,-0.220886,0.003989
# mode = 0
# plane_normal = 0.028751,0.005245,0.601004
# ubconf = UB24Oct2011_63347PM.ini
# preset_type = normal 
# preset_channel = mcu
# preset_value = 1.000000
# def_x = e
# def_y = detector
# col_headers = 
#   Pt.          h          k          l          e       time   detector    monitor        mcu focal_length         m1         m2       marc     mtrans     mfocus         s1         s2        sgl        sgu        stl        stu         a1         a2          q         ei         ef cold_tip_[a] sample_[b]   e_typ_tc   au-fe_tc       temp
      1     0.5000     0.0000     3.5000   -13.5000     59.960     15.000  91593.000      1.000    96.4440   142.9286   -74.1428     0.6500     0.0000    34.9840     2.7238    38.3958    -2.7386     0.5000     0.0000     0.0000   161.7366   -36.5268     2.0163     5.0000    18.5000   299.3040   298.3230   300.1010   296.0070   300.000
      2     0.5000     0.0000     3.5000   -13.2500     60.261     21.000  91593.000      1.000    96.4440   142.9286   -74.1428     0.6500     0.0000    34.9840     3.9176    39.1039    -2.7386     0.5000     0.0000     0.0000   161.6074   -36.7850     2.0163     5.0000    18.2500   299.2900   298.3180   299.7710   295.9190   300.000
      3     0.5000     0.0000     3.5000   -13.0000     60.154     16.000  91593.000      1.000    96.4440   142.9286   -74.1428     0.6500     0.0000    34.9840     5.1014    39.8076    -2.7386     0.5000     0.0000     0.0000   161.4756   -37.0488     2.0163     5.0000    18.0000   299.2790   298.3150   299.6770   295.8360   300.000
      4     0.5000     0.0000     3.5000   -12.7500     60.411     14.000  91593.000      1.000    96.4440   142.9286   -74.1428     0.6500     0.0000    34.9840     6.2762    40.5076    -2.7386     0.5000     0.0000     0.0000   161.3408   -37.3184     2.0163     5.0000    17.7500   299.2920   298.3140   300.2820   295.9470   300.000
      5     0.5000     0.0000     3.5000   -12.5000     60.469     19.000  91593.000      1.000    96.4440   142.9286   -74.1428     0.6500     0.0000    34.9840     7.4425    41.2040    -2.7386     0.5000     0.0000     0.0000   161.2030   -37.5939     2.0163     5.0000    17.5000   299.3040   298.3180   300.6200   296.0660   300.000
      6     0.5000     0.0000     3.5000   -12.2500     60.377     13.000  91593.000      1.000    96.4440   142.9286   -74.1428     0.6500     0.0000    34.9840     8.6010    41.8974    -2.7386     0.5000     0.0000     0.0000   161.0622   -37.8756     2.0163     5.0000    17.2500   299.3150   298.3230   300.4130   296.0610   300.000
      7     0.5000     0.0000     3.5000   -12.0000     60.495     12.000  91593.000      1.000    96.4440   142.9286   -74.1428     0.6500     0.0000    34.9840     9.7523    42.5882    -2.7386     0.5000     0.0000     0.0000   160.9181   -38.1638     2.0163     5.0000    17.0000   299.3090   298.3220   300.0720   295.9510   300.000
      8     0.5000     0.0000     3.5000   -11.7500     60.184     12.000  91593.000      1.000    96.4440   142.9286   -74.1428     0.6500     0.0000    34.9840    10.8970    43.2767    -2.7386     0.5000     0.0000     0.0000   160.7706   -38.4587     2.0163     5.0000    16.7500   299.2930   298.3170   299.7600   295.9430   300.000
      9     0.5000     0.0000     3.5000   -11.5000     59.836      9.000  91593.000      1.000    96.4440   142.9286   -74.1428     0.6500     0.0000    34.9840    12.0357    43.9633    -2.7386     0.5000     0.0000     0.0000   160.6198   -38.7605     2.0163     5.0000    16.5000   299.2780   298.3070   299.7190   295.9540   300.000
     10     0.5000     0.0000     3.5000   -11.2500     60.909      9.000  91593.000      1.000    96.4440   142.9286   -74.1428     0.6500     0.0000    34.9840    13.1689    44.6484    -2.7386     0.5000     0.0000     0.0000   160.4652   -39.0695     2.0163     5.0000    16.2500   299.2830   298.3080   300.3010   295.9620   300.000
     11     0.5000     0.0000     3.5000   -11.0000     60.248      4.000  91593.000      1.000    96.4440   142.9286   -74.1428     0.6500     0.0000    34.9840    14.2971    45.3323    -2.7386     0.5000     0.0000     0.0000   160.3070   -39.3861     2.0163     5.0000    16.0000   299.3020   298.3160   300.5290   295.9710   300.000
     12     0.5000     0.0000     3.5000   -10.7500     60.394      3.000  91593.000      1.000    96.4440   142.9286   -74.1428     0.6500     0.0000    34.9840    15.4208    46.0154    -2.7386     0.5000     0.0000     0.0000   160.1448   -39.7105     2.0163     5.0000    15.7500   299.3130   298.3190   300.2910   295.9980   300.000
     13     0.5000     0.0000     3.5000   -10.5000     60.558      6.000  91593.000      1.000    96.4440   142.9286   -74.1428     0.6500     0.0000    34.9840    16.5406    46.6980    -2.7386     0.5000     0.0000     0.0000   159.9785   -40.0430     2.0163     5.0000    15.5000   299.3020   298.3180   299.9680   296.0430   300.000
     14     0.5000     0.0000     3.5000   -10.2500     60.478     10.000  91593.000      1.000    96.4440   142.9286   -74.1428     0.6500     0.0000    34.9840    17.6568    47.3804    -2.7386     0.5000     0.0000     0.0000   159.8079   -40.3841     2.0163     5.0000    15.2500   299.2840   298.3110   299.6900   296.0640   300.000
     15     0.5000     0.0000     3.5000   -10.0000     60.256      4.000  91593.000      1.000    96.4440   142.9286   -74.1428     0.6500     0.0000    34.9840    18.7699    48.0630    -2.7386     0.5000     0.0000     0.0000   159.6330   -40.7341     2.0163     5.0000    15.0000   299.2780   298.3060   299.8270   296.0450   300.000
     16     0.5000     0.0000     3.5000    -9.7500     60.369      5.000  91593.000      1.000    96.4440   142.9286   -74.1428     0.6500     0.0000    34.9840    19.8804    48.7460    -2.7386     0.5000     0.0000     0.0000   159.4534   -41.0932     2.0163     5.0000    14.7500   299.2930   298.3080   300.4860   295.9950   300.000
     17     0.5000     0.0000     3.5000    -9.5000     60.615      4.000  91593.000      1.000    96.4440   142.9286   -74.1428     0.6500     0.0000    34.9840    20.9887    49.4299    -2.7386     0.5000     0.0000     0.0000   159.2690   -41.4622     2.0163     5.0000    14.5000   299.3140   298.3160   300.5630   296.0980   300.000
     18     0.5000     0.0000     3.5000    -9.2500     60.395      5.000  91593.000      1.000    96.4440   142.9286   -74.1428     0.6500     0.0000    34.9840    22.0952    50.1150    -2.7386     0.5000     0.0000     0.0000   159.0794   -41.8412     2.0163     5.0000    14.2500   299.3240   298.3190   300.2620   296.0340   300.000
     19     0.5000     0.0000     3.5000    -9.0000     60.199      4.000  91593.000      1.000    96.4440   142.9286   -74.1428     0.6500     0.0000    34.9840    23.2003    50.8015    -2.7386     0.5000     0.0000     0.0000   158.8846   -42.2308     2.0163     5.0000    14.0000   299.3130   298.3170   299.9150   295.9300   300.000
     20     0.5000     0.0000     3.5000    -8.7500     60.341      7.000  91593.000      1.000    96.4440   142.9286   -74.1428     0.6500     0.0000    34.9840    24.3045    51.4899    -2.7386     0.5000     0.0000     0.0000   158.6842   -42.6316     2.0163     5.0000    13.7500   299.2950   298.3100   299.6670   295.9260   300.000
     21     0.5000     0.0000     3.5000    -8.5000     60.362      5.000  91593.000      1.000    96.4440   142.9286   -74.1428     0.6500     0.0000    34.9840    25.4082    52.1804    -2.7386     0.5000     0.0000     0.0000   158.4779   -43.0440     2.0163     5.0000    13.5000   299.2870   298.3080   299.9480   295.8970   300.000
     22     0.5000     0.0000     3.5000    -8.2500     60.113      7.000  91593.000      1.000    96.4440   142.9286   -74.1428     0.6500     0.0000    34.9840    26.5117    52.8734    -2.7386     0.5000     0.0000     0.0000   158.2657   -43.4686     2.0163     5.0000    13.2500   299.3110   298.3120   300.5530   296.1010   300.000
     23     0.5000     0.0000     3.5000    -8.0000     60.108     12.000  91593.000      1.000    96.4440   142.9286   -74.1428     0.6500     0.0000    34.9840    27.6155    53.5694    -2.7386     0.5000     0.0000     0.0000   158.0470   -43.9061     2.0163     5.0000    13.0000   299.3260   298.3180   300.5080   296.0690   300.000
# Sum of Counts = 216
# Center of Mass = -11.398148+/-1.103066
# Full Width Half-Maximum = 3.454424+/-0.549056
# 7:27:24 PM  10/25/2011   scan completed.
