# scan = 499
# date = 3/2/2025
# time = 8:38:35 PM
# proposal = 34247
# experiment = Investigating the Transverse Field Ising Ferromagnet HoV6Sn6: A Rare Example of a Ferromagnetic Metal with a Quantum Critical Point?
# experiment_number = 1047
# command = scanon
# builtin_command = scanon
# users = Aashish Sapkota, Benjamin Ueland, Dhurba Jaishi, Fei Li, Rob McQueeney, Tianxiong Han, Bing Li
# local_contact = A. Aczel
# scan_title = Temp scan while cooling (1 0 0), at H = 1.6 T
# monochromator = PG002
# analyzer = Pg002
# sense = +-+
# collimation = 40-40-40-80
# samplename = HoV6Sn6 crystal
# sampletype = crystal
# samplemosaic = 30.000000
# latticeconstants = 5.500888,5.500888,9.163669,90.000000,90.000000,120.000000
# ubmatrix = 0.113515,0.063136,0.091714,0.176568,0.085181,-0.058986,-0.000970,0.181165,-0.004228
# mode = 0
# plane_normal = 0.035087,-0.017067,0.999238
# ubconf = C:\SPICE\User\exp1047\UBConf\UB28Feb2025_100007PM.ini
# def_x = dr_tsample
# def_y = detector
# col_headers = 
#   Pt.         m2      mag_i         s1         s2        sgl        sgu   slitb_bt   slitb_lf   slitb_rt   slitb_tp   slita_bt   slita_lf   slita_rt   slita_tp        stl        stu         a1         a2          q          h          k          l         ei         ef          e        vti     sample       temp persistent_field dr_tsample    dr_temp       time   detector    monitor        mcu
      1    41.5367     0.0000   -71.6107   -28.8644    -2.0107    -0.9782    25.0000     6.0000     6.0000    25.0000    25.0000     9.0000     7.0000    22.0000    -3.9970     0.0020    20.7317    41.4623     1.3175     0.9989    -0.0000    -0.0043    14.4503    14.4999    -0.0496     1.7028     0.0000     1.0000     1.6000     0.7007     0.700     60.000  32778.000 1283263.000     66.490
      2    41.5367    -0.0000   -71.6108   -28.8643    -2.0107    -0.9782    25.0000     6.0000     6.0000    25.0000    25.0000     9.0000     7.0000    22.0000    -3.9970     0.0020    20.7317    41.4623     1.3175     0.9989    -0.0000    -0.0043    14.4503    14.4999    -0.0496     1.7024     0.0000     1.0000     1.6000     0.6995     0.690     60.000  32854.000 1282720.000     66.462
      3    41.5367    -0.0000   -71.6108   -28.8644    -2.0107    -0.9782    25.0000     6.0000     6.0000    25.0000    25.0000     9.0000     7.0000    22.0000    -3.9970     0.0020    20.7317    41.4623     1.3175     0.9989    -0.0000    -0.0043    14.4503    14.4999    -0.0496     1.7019     0.0000     1.0000     1.6000     0.6970     0.680     60.000  32649.000 1282393.000     66.445
      4    41.5367     0.0001   -71.6108   -28.8643    -2.0107    -0.9782    25.0000     6.0000     6.0000    25.0000    25.0000     9.0000     7.0000    22.0000    -3.9970     0.0020    20.7317    41.4623     1.3175     0.9989    -0.0000    -0.0043    14.4503    14.4999    -0.0496     1.7012     0.0000     1.0000     1.6000     0.6755     0.670     60.000  32971.000 1282339.000     66.442
      5    41.5367    -0.0000   -71.6108   -28.8644    -2.0107    -0.9782    25.0000     6.0000     6.0000    25.0000    25.0000     9.0000     7.0000    22.0000    -3.9970     0.0020    20.7317    41.4623     1.3175     0.9989    -0.0000    -0.0043    14.4503    14.4999    -0.0496     1.7002     0.0000     1.0000     1.6000     0.6608     0.660     60.000  33388.000 1282442.000     66.448
      6    41.5367     0.0000   -71.6108   -28.8644    -2.0107    -0.9782    25.0000     6.0000     6.0000    25.0000    25.0000     9.0000     7.0000    22.0000    -3.9970     0.0020    20.7317    41.4623     1.3175     0.9989    -0.0000    -0.0043    14.4503    14.4999    -0.0496     1.7003     0.0000     1.0000     1.6000     0.6606     0.650     60.000  33118.000 1281772.000     66.413
      7    41.5367    -0.0000   -71.6108   -28.8644    -2.0107    -0.9782    25.0000     6.0000     6.0000    25.0000    25.0000     9.0000     7.0000    22.0000    -3.9970     0.0020    20.7317    41.4623     1.3175     0.9989    -0.0000    -0.0043    14.4503    14.4999    -0.0496     1.7004     0.0000     1.0000     1.6000     0.6492     0.640     60.000  32995.000 1280811.000     66.363
# Sum of Counts = 230753
# Center of Mass = 0.677513+/-0.001995
# Full Width Half-Maximum = 0.039779+/-0.001509
# 8:53:29 PM  3/2/2025   scan stopped!!
